time (s)	magX	magY	magZ
4957.893425	-84.398590	-69.710114	-13.410872
4957.896759	-86.151947	-70.820572	-13.060200
4957.900088	-86.736404	-71.755692	-12.592636
4957.903415	-88.489761	-73.333725	-12.300409
4957.906751	-90.126236	-73.742844	-11.832846
4957.910084	-91.821152	-75.262421	-10.956165
4957.913416	-91.996490	-76.840439	-11.774401
4957.916751	-94.451187	-78.067795	-10.839275
4957.920089	-95.561646	-80.464050	-10.488604
4957.923419	-97.431900	-81.574509	-9.670368
4957.926768	-98.776154	-84.204559	-9.670368
4957.930087	-100.997070	-85.022797	-8.969025
4957.933416	-102.341324	-86.717697	-8.092344
4957.936744	-103.919342	-88.529510	-7.157219
4957.940083	-106.607819	-90.049088	-7.098774
4957.944372	-110.465225	-93.497375	-5.579195
4957.947621	-111.809464	-95.250717	-4.527176
4957.950935	-114.556396	-97.354752	-3.650497
4957.954257	-117.011093	-99.283463	-3.124489
4957.957191	-119.056686	-101.913498	-2.014027
4957.960502	-121.686722	-103.491516	-0.319111
4957.963834	-123.381638	-105.887787	0.148453
4957.967192	-125.953232	-109.043839	1.083576
4957.970538	-128.349503	-111.498535	2.895382
4957.973416	-131.096420	-113.953247	4.239628
4957.976764	-134.135590	-116.466385	5.408535
4957.980076	-136.882523	-119.797775	7.103451
4957.983414	-140.213913	-122.427826	8.389248
4957.986750	-143.077728	-125.466980	9.265926
4957.990077	-145.649338	-128.915253	11.603741
4957.993412	-149.506729	-131.545288	13.181763
4957.996740	-152.136749	-135.285797	15.168903
4958.000081	-156.111038	-137.974289	17.506718
4958.003413	-159.267090	-141.831665	19.844540
4958.006744	-162.890717	-145.279953	22.416134
4958.010072	-165.988312	-149.020462	24.344826
4958.013420	-170.722382	-152.936295	27.793102
4958.016746	-174.462875	-157.378143	30.656925
4958.020073	-177.852722	-161.118637	33.988308
4958.023409	-181.768555	-165.735825	37.787258
4958.026740	-186.444183	-169.651657	40.826412
4958.030078	-191.002914	-174.794846	44.859150
4958.033410	-195.795425	-179.996506	48.365864
4958.036740	-201.172409	-184.964340	52.047924
4958.040076	-204.971359	-189.289291	56.548222
4958.043398	-210.874344	-195.075378	61.632961
4958.046747	-216.601974	-200.510803	66.834595
4958.050108	-221.394516	-205.595551	71.802460
4958.054676	-232.908249	-218.044403	83.725296
4958.057598	-238.168320	-223.947388	89.978958
4958.060942	-243.545273	-230.493256	96.992401
4958.064279	-248.746933	-237.214478	104.590302
4958.067697	-255.059006	-244.520142	111.779083
4958.070525	-261.897156	-250.832245	119.902985
4958.073863	-267.683228	-259.131500	128.377563
4958.077163	-274.404449	-264.976044	136.969025
4958.080496	-279.606079	-273.099945	146.437180
4958.083821	-287.554657	-281.399200	157.074234
4958.086730	-292.990082	-289.581512	168.178848
4958.090072	-299.302185	-298.406769	179.166565
4958.093436	-307.952087	-305.770874	192.784348
4958.096734	-314.205750	-314.303894	204.005844
4958.100066	-319.348938	-324.824097	218.149628
4958.103404	-326.829956	-332.421967	231.767410
4958.106738	-334.077148	-342.942139	247.489212
4958.110065	-339.454132	-350.656921	263.678558
4958.113398	-346.759796	-361.001770	278.932770
4958.116734	-352.779694	-371.638794	297.693726
4958.120065	-358.741089	-380.814728	315.402679
4958.123396	-364.936310	-391.685577	336.326111
4958.126748	-372.066650	-402.205750	357.191101
4958.130071	-377.911194	-409.686737	380.510803
4958.133396	-383.288147	-421.317383	403.304474
4958.136762	-387.379333	-431.662170	426.682617
4958.140061	-392.873199	-441.831665	453.216827
4958.143408	-396.087708	-451.650513	480.510773
4958.146727	-399.652832	-462.170624	507.220306
4958.150061	-403.860901	-470.937469	534.631226
4958.153393	-404.912903	-479.704285	564.730591
4958.156729	-405.438965	-487.419067	597.927551
4958.160063	-407.776733	-496.361206	627.910034
4958.163398	-408.185883	-506.413757	659.353638
4958.168071	-403.919373	-520.499146	730.072449
4958.171034	-400.763336	-525.583862	767.594421
4958.174319	-396.029236	-530.025696	802.194092
4958.177605	-388.957367	-534.292236	839.365295
4958.180957	-382.469910	-537.915833	876.010559
4958.184247	-373.118652	-539.435425	913.123291
4958.187168	-363.007599	-541.714783	951.463501
4958.190485	-351.902954	-540.896545	989.102295
4958.193817	-337.759216	-541.071899	1027.267090
4958.197164	-322.797211	-538.091187	1063.853882
4958.200057	-306.374054	-535.285767	1101.434326
4958.203385	-286.677979	-532.129761	1136.501465
4958.206723	-266.748108	-526.577454	1167.828125
4958.210054	-245.824661	-518.102844	1201.843384
4958.213397	-221.160721	-509.336060	1231.416748
4958.216717	-196.321457	-498.231445	1258.885986
4958.220057	-169.904160	-485.957886	1286.063110
4958.223423	-142.610153	-472.340149	1311.077759
4958.226719	-112.686142	-457.436584	1330.832275
4958.230071	-82.294571	-442.591461	1349.125610
4958.233389	-50.734074	-423.772095	1366.016357
4958.236723	-19.056690	-404.952667	1373.555786
4958.240052	14.490940	-386.133240	1389.453003
4958.243383	47.337231	-364.040894	1390.505005
4958.246721	81.586205	-343.585022	1392.083008
4958.250055	115.309174	-321.960236	1395.239014
4958.253388	148.681473	-298.815918	1391.498535
4958.256716	182.112228	-275.087067	1384.192871
4958.260052	214.549393	-251.241394	1374.315674
4958.263380	247.395676	-227.687897	1356.548218
4958.266737	277.319702	-204.134430	1342.638306
4958.270053	307.302155	-181.106964	1326.039795
4958.273380	335.472809	-157.027466	1303.538330
4958.276774	364.344818	-132.947983	1280.919922
4958.281323	412.971344	-88.120392	1227.559326
4958.284226	436.583282	-66.670959	1192.316772
4958.287562	457.915833	-45.396839	1166.133301
4958.290969	477.085907	-25.291645	1133.286987
4958.294247	493.099915	-5.420223	1101.025146
4958.297169	508.412598	13.399181	1064.847412
4958.300496	521.679749	30.056107	1032.351807
4958.303825	534.011719	47.706604	996.641724
4958.307135	545.174744	63.720631	960.639465
4958.310482	553.766235	77.864410	923.994141
4958.313381	558.792480	91.657516	888.342529
4958.316711	565.338379	104.573929	852.106384
4958.320045	568.085327	115.912338	818.734070
4958.323377	570.949158	126.198715	784.017517
4958.326711	570.540039	135.842194	752.398621
4958.330042	571.066040	144.433670	716.863831
4958.333372	568.026855	151.271774	684.017517
4958.336710	567.559326	158.694336	654.853333
4958.340069	561.890137	165.006439	625.104614
4958.343378	558.909424	170.558746	592.842773
4958.346710	550.960815	175.351257	566.191711
4958.350039	546.460510	179.500885	537.495056
4958.353379	538.336670	181.838699	511.895966
4958.356704	532.725891	184.702515	485.186432
4958.360044	523.842224	186.748108	461.340698
4958.363378	516.010559	188.676804	436.326111
4958.366711	507.126801	189.144363	413.298645
4958.370035	496.606628	189.553482	391.849182
4958.373379	488.424286	190.430161	369.464630
4958.376700	478.371704	189.378143	351.054352
4958.380043	470.072449	189.553482	330.832275
4958.383396	460.662750	188.443024	311.019257
4958.386708	449.032135	186.689667	294.479248
4958.390033	440.148437	186.163651	277.237854
4958.394685	418.348328	182.072479	247.138504
4958.397565	409.347748	180.786682	233.053207
4958.400966	400.873138	177.981308	219.610764
4958.404294	390.586761	175.994156	205.934540
4958.407213	379.949738	174.065460	194.771484
4958.410463	372.176483	171.143204	182.673294
4958.413837	362.006989	169.039169	172.094681
4958.417131	352.597290	165.824661	161.106949
4958.420460	343.888947	163.311508	151.989487
4958.423792	334.596130	160.798370	142.696671
4958.426717	326.764465	157.642319	133.871414
4958.430033	319.108124	154.486267	124.403275
4958.433364	310.399780	151.680878	117.448273
4958.436698	301.925171	149.167740	109.850388
4958.440038	294.561066	146.362366	101.901810
4958.443368	287.138519	143.440094	95.881943
4958.446699	278.897705	141.043839	89.219177
4958.450032	271.416718	138.296906	83.316193
4958.453393	265.163055	135.433075	77.179428
4958.456738	258.500275	132.978378	71.334900
4958.460031	251.369965	131.049683	66.542374
4958.463365	245.291641	128.244308	62.392750
4958.466698	238.511993	124.971359	57.600239
4958.470057	232.492111	123.218002	53.333721
4958.473362	226.589142	120.295731	49.242550
4958.476692	221.153717	117.665695	45.618938
4958.480026	214.490952	115.795441	41.878429
4958.483368	209.464645	113.165405	39.423725
4958.486700	204.847458	110.593811	35.858562
4958.490027	199.704269	108.840439	32.527180
4958.493360	194.268860	106.385742	29.546467
4958.496696	190.119232	104.340149	27.267101
4958.500024	185.911163	102.119232	24.695499
4958.503361	181.586212	100.015198	22.649914
4958.507616	173.286972	96.157806	18.441849
4958.510928	169.078903	94.462891	15.811806
4958.514236	164.403275	92.884857	14.818233
4958.517535	160.779663	90.722382	12.889538
4958.520898	157.974289	88.969025	11.136177
4958.523783	154.058441	87.332550	10.142605
4958.527118	149.908829	85.754532	8.213909
4958.530489	147.103455	83.767387	7.045002
4958.533808	143.479828	82.423141	5.876099
4958.536695	140.908234	81.254242	4.239628
4958.540042	137.693756	79.676208	2.953827
4958.543382	134.713028	78.565750	1.317356
4958.546692	131.966095	76.870834	0.674458
4958.550027	129.160721	75.877266	0.031559
4958.553356	126.238457	74.182350	-0.728230
4958.556700	123.783752	73.013443	-1.780247
4958.560016	121.270599	72.721222	-2.890705
4958.563354	119.225021	70.909409	-3.299824
4958.566685	116.711868	69.506721	-4.293396
4958.570024	114.374054	68.630043	-5.403858
4958.573349	112.153122	67.285797	-5.520750
4958.576683	109.873756	66.175339	-6.163649
4958.580019	107.769730	65.473991	-5.988312
4958.583349	105.431915	64.129745	-7.391001
4958.586692	104.263000	63.428406	-7.741673
4958.590017	101.925186	62.668617	-9.027470
4958.593350	100.697838	62.084160	-8.910580
4958.596678	98.769142	60.389244	-10.079485
4958.600014	97.074226	59.980125	-10.313267
4958.603397	95.613098	58.986557	-10.547049
4958.606682	93.976624	58.285213	-10.839275
4958.610015	92.164818	57.992989	-10.547049
4958.613347	91.580360	56.648743	-11.248392
4958.618009	88.482758	55.187607	-11.599064
4958.620865	86.729401	55.187607	-12.300409
4958.624247	85.969604	53.960258	-12.066628
4958.627564	84.683807	52.791351	-12.709526
4958.630973	83.281120	52.849796	-12.709526
4958.633806	82.579773	51.622444	-13.177090
4958.637130	81.761543	51.213326	-13.352427
4958.640437	80.709526	50.862656	-13.469316
4958.643776	79.423729	50.395092	-12.767973
4958.647134	78.547050	49.635300	-13.819988
4958.650008	77.319695	49.693745	-13.410872
4958.653345	76.267677	49.226181	-13.819988
4958.656674	75.215668	48.466393	-14.229105
4958.660008	74.397430	47.881939	-14.345997
4958.663349	73.929863	47.881939	-13.761543
4958.666695	73.111633	47.589714	-13.703098
4958.670008	72.001167	46.713032	-14.579777
4958.673338	71.650497	45.894798	-14.112215
4958.676675	70.072472	45.894798	-15.105785
4958.680010	69.663353	45.485680	-15.514902
4958.683345	69.663353	45.719463	-15.281122
4958.686680	69.137344	45.251900	-14.930450
4958.690018	67.617767	44.609001	-15.222677
4958.693342	67.909996	44.667446	-14.755114
4958.696679	67.150208	43.790764	-15.164230
4958.700001	66.741089	43.673874	-15.281122
4958.703343	66.331970	43.556984	-14.345997
4958.706672	65.396843	43.615429	-15.222677
4958.710049	65.279953	42.855640	-15.339567
4958.713339	64.227936	43.381649	-15.807129
4958.716676	63.877266	42.680305	-15.748684
4958.720001	63.818821	42.154297	-15.339567
4958.723337	63.059029	41.978958	-15.748684
4958.726674	62.357685	41.920513	-15.456457
4958.730869	62.240795	41.803623	-15.222677
4958.734275	61.597897	41.803623	-15.105785
4958.737579	61.481007	41.336060	-15.573349
4958.740863	61.188778	41.628288	-15.514902
4958.744180	60.721214	40.926945	-16.625366
4958.747092	60.604324	41.277615	-16.099356
4958.750422	60.019871	40.985390	-15.631794
4958.753762	60.195206	40.985390	-15.690239
4958.757087	59.786091	41.102280	-15.690239
4958.760002	59.786091	40.926945	-15.690239
4958.763335	59.610756	40.634716	-15.807129
4958.766662	59.493862	40.167152	-15.164230
4958.770034	59.318527	40.751606	-15.982466
4958.773378	59.493862	40.868496	-15.865576
4958.776664	59.376972	41.336060	-16.450027
4958.780001	59.201637	40.576271	-15.982466
4958.783354	58.675629	40.985390	-16.157803
4958.786661	58.792519	41.277615	-17.209820
4958.790004	58.792519	41.511398	-16.859148
4958.793330	58.675629	41.628288	-16.099356
4958.796678	59.084747	41.862068	-16.917593
4958.799996	58.675629	41.862068	-16.333138
4958.803330	59.260082	41.978958	-16.625366
4958.806660	58.500294	42.621857	-16.625366
4958.809996	58.850964	42.388077	-16.450027
4958.813325	58.734074	42.271187	-16.450027
4958.816660	59.435417	42.738750	-16.742256
4958.819998	59.552307	43.089420	-16.157803
4958.823326	59.493862	43.556984	-16.274693
4958.826667	60.136761	43.673874	-16.333138
4958.829999	59.669201	44.375217	-15.865576
4958.833326	60.487434	44.141438	-16.274693
4958.836663	60.662769	44.842781	-15.573349
4958.840896	61.247223	44.375217	-16.566921
4958.844172	62.357685	45.135010	-16.216248
4958.847506	61.714787	45.427235	-16.800701
4958.850845	62.416130	45.719463	-16.333138
4958.854197	63.117474	46.187023	-15.865576
4958.857149	62.942139	47.180595	-15.456457
4958.860442	63.526592	47.239040	-15.514902
4958.863777	63.935711	47.122150	-16.508474
4958.867099	64.286385	47.706604	-15.514902
4958.870014	65.046173	48.291058	-15.690239
4958.873324	65.046173	48.291058	-15.047340
4958.876657	65.689072	49.635300	-15.164230
4958.879990	66.039742	50.161308	-15.222677
4958.883321	66.799530	49.927528	-15.281122
4958.886652	67.150208	50.336647	-14.813559
4958.889986	67.909996	51.563995	-14.813559
4958.893325	68.202225	52.148453	-14.287552
4958.896654	69.371124	52.849796	-14.345997
4958.900015	69.604912	52.908241	-14.287552
4958.903322	70.773819	53.843369	-14.229105
4958.906652	70.890709	54.544708	-14.462887
4958.909983	71.650497	54.953827	-13.761543
4958.913323	72.877853	55.772064	-13.761543
4958.916652	73.754532	56.590298	-13.703098
4958.919984	74.748100	57.583870	-13.586206
4958.923319	74.806549	58.226768	-13.235535
4958.926648	76.033897	58.694328	-13.293980
4958.930001	76.852135	59.512566	-12.358854
4958.933327	77.962593	60.681473	-12.534191
4958.936654	79.248398	61.032143	-12.534191
4958.939982	79.306839	62.493279	-12.592636
4958.943350	80.592636	63.603741	-12.475746
4958.946653	81.644653	64.831093	-11.189947
4958.949979	82.638222	66.175339	-11.715954
4958.954163	84.859146	68.045586	-11.189947
4958.957537	86.729401	69.448273	-10.605494
4958.960871	87.664520	70.441849	-10.196377
4958.964227	88.833435	71.610748	-8.969025
4958.967101	90.586792	73.130333	-8.559906
4958.970427	91.229691	74.416130	-9.027470
4958.973738	92.924606	76.052597	-8.501461
4958.977075	94.093513	77.221512	-8.150789
4958.980411	95.437759	78.916428	-7.741673
4958.983307	96.723557	80.552887	-6.806547
4958.986661	98.944473	82.540039	-6.222094
4958.989975	100.464050	83.533607	-4.877850
4958.993309	102.217415	85.812973	-4.001167
4958.996644	103.444771	88.033897	-3.708942
4958.999978	105.607246	89.261246	-3.475159
4959.003307	107.535950	91.014610	-2.481590
4959.006643	109.523087	93.235535	-1.488018
4959.009983	111.276443	95.105789	-1.371128
4959.013307	112.912918	97.677383	1.551140
4959.016640	115.250732	99.956749	1.843365
4959.019975	117.004089	102.177673	2.486263
4959.023345	119.283463	105.041489	4.064293
4959.026648	122.205727	106.970200	4.940971
4959.029983	124.485092	110.126236	6.752777
4959.033303	126.881363	112.054932	6.635887
4959.036640	129.511398	115.327881	9.265926
4959.039974	131.498535	118.191696	10.960842
4959.043309	134.537689	121.464630	12.655754
4959.046644	137.109299	124.211578	14.526009
4959.049972	139.622437	127.075394	16.863823
4959.053312	142.252487	129.588547	18.032730
4959.056636	145.233200	133.738159	19.844540
4959.059969	148.097015	136.952667	21.364117
4959.064676	155.519577	144.725891	27.033318
4959.067688	157.915848	148.174164	29.488018
4959.070895	161.247223	151.973114	31.767384
4959.074257	164.870834	156.414963	34.631207
4959.077482	167.617767	160.623016	37.670368
4959.080815	171.533615	165.415543	42.053768
4959.083730	175.332550	169.565170	45.209820
4959.087062	178.430161	174.416138	47.313854
4959.090385	182.462891	179.559326	51.931034
4959.093726	186.904739	184.527191	56.080654
4959.096628	190.002335	189.845703	59.879604
4959.099967	194.093521	195.164246	63.795444
4959.103296	198.067810	200.833435	68.646408
4959.106636	202.626541	206.385742	73.906494
4959.110004	206.483932	212.347168	79.400360
4959.113300	210.984222	218.951492	84.718872
4959.116651	214.374054	224.971375	90.388077
4959.119964	218.815903	231.341919	97.401520
4959.123299	222.614838	238.530685	102.836945
4959.126631	227.758041	244.842773	110.434845
4959.129962	231.147873	253.083572	117.448273
4959.133291	236.115723	260.330811	125.163071
4959.136632	240.557571	267.928711	133.053192
4959.139968	244.590302	275.818817	142.170670
4959.143296	249.149048	283.358276	150.177673
4959.146630	253.590897	291.014618	160.405609
4959.149966	257.506714	299.430756	170.107544
4959.153314	261.714783	308.606659	180.569260
4959.156630	266.273529	317.431915	191.440094
4959.159966	269.488037	325.497375	201.960266
4959.163291	274.222076	335.783752	214.292221
4959.166625	276.969025	345.310333	226.448868
4959.169954	280.475739	353.551147	240.066635
4959.173295	283.982452	364.129761	253.684372
4959.177513	289.943878	383.358276	283.608398
4959.180808	290.995911	394.112213	300.206879
4959.184144	293.625946	403.697266	316.337799
4959.187492	294.677979	413.574524	333.696075
4959.190837	295.262421	424.620697	351.521912
4959.193747	296.898895	433.796600	370.633545
4959.197109	296.022186	445.076569	389.803589
4959.200397	294.677979	454.135559	407.395630
4959.203719	294.502625	463.837555	427.910004
4959.207050	291.171234	473.948578	451.171234
4959.209952	288.950317	483.124512	470.691956
4959.213291	285.618927	492.300415	492.375214
4959.216624	281.469330	500.132111	515.578064
4959.219957	275.683197	508.840424	539.190002
4959.223286	270.540009	518.133240	563.503235
4959.226621	263.000580	527.776733	587.056702
4959.229953	254.000000	534.439514	612.012878
4959.233288	244.999420	541.102295	635.566345
4959.236620	234.596146	545.953247	659.938049
4959.239969	223.316193	552.440674	682.731750
4959.243284	210.808899	556.356567	709.032166
4959.246623	197.015778	560.330811	736.209290
4959.249955	181.293976	560.739929	759.762756
4959.253287	165.572189	563.311523	782.731812
4959.256617	147.687897	564.246643	807.220337
4959.260004	128.868500	563.603760	831.942749
4959.263282	108.938629	561.090576	855.145508
4959.266616	87.781418	556.531860	876.594971
4959.269952	65.396843	551.330200	900.265381
4959.273282	41.960258	546.303894	919.669250
4959.276618	17.413208	541.160706	939.423706
4959.279954	-7.601398	531.225037	957.892517
4959.283315	-33.317356	519.945068	975.776733
4959.287917	-87.262421	495.047333	1005.233154
4959.290848	-115.199295	480.903595	1016.980713
4959.294222	-142.960831	466.058472	1030.715332
4959.297540	-172.008179	448.466400	1039.715942
4959.300866	-198.600815	430.406769	1045.209839
4959.304130	-227.823502	411.061371	1049.125610
4959.307031	-255.701920	389.202789	1055.145508
4959.310366	-283.288147	368.863831	1054.268921
4959.313708	-310.465210	346.596130	1052.515503
4959.317030	-337.700775	324.445343	1050.353027
4959.319946	-363.124512	301.593231	1046.028076
4959.323283	-387.671539	278.273529	1038.021118
4959.326627	-410.114594	255.304489	1030.423096
4959.329940	-432.382263	231.225021	1018.091187
4959.333278	-454.182373	207.729980	1003.421387
4959.336607	-473.469299	184.468735	990.797241
4959.339943	-494.158997	160.973709	972.562317
4959.343273	-509.822327	138.355347	955.613098
4959.346642	-525.310364	116.438339	935.917053
4959.349948	-539.044983	94.755112	915.811829
4959.353276	-552.019897	73.481003	892.725952
4959.356605	-564.877869	53.726475	870.808838
4959.359938	-572.709534	33.796612	848.073669
4959.363275	-580.716553	15.678551	821.597961
4959.366610	-587.437805	-1.679722	798.219727
4959.369977	-589.424927	-18.511982	771.627136
4959.373270	-594.626526	-33.766216	744.859131
4959.376604	-596.613708	-48.026890	719.435425
4959.379941	-595.970764	-61.819988	693.836365
4959.383266	-597.841003	-74.093506	669.055542
